#Wave		#Intensity
2647.226562	94.455559
2645.465820	94.455559
2643.705078	76.637489
2641.943359	108.082397
2640.181641	109.418900
2638.418945	88.877129
2636.656250	103.887756
2634.892578	117.523087
2633.127930	128.418137
2631.363281	118.820503
2629.598633	116.055176
2627.833008	140.590530
2626.066406	132.362106
2624.299805	150.057449
2622.533203	137.739655
2620.765625	148.606125
2618.997070	139.021774
2617.228516	152.606461
2615.458984	133.491333
2613.689453	149.793015
2611.918945	160.639603
2610.148438	122.485512
2608.376953	123.809799
2606.604492	141.454971
2604.833008	129.175308
2603.059570	148.167633
2601.286133	150.841400
2599.511719	126.342972
2597.737305	127.663391
2595.962891	146.633270
2594.187500	150.661331
2592.411133	130.262665
2590.634766	151.927536
2588.857422	150.525818
2587.079102	138.279434
2585.300781	140.948349
2583.522461	128.712097
2581.743164	124.609879
2579.962891	116.447945
2578.182617	113.705437
2576.402344	106.904861
2574.620117	125.811852
2572.838867	87.906311
2571.055664	105.455498
2569.272461	97.313896
2567.489258	89.177216
2565.705078	106.709846
2563.919922	95.874481
2562.134766	72.896309
2560.349609	98.514816
2558.562500	97.135498
2556.775391	102.500435
2554.988281	111.906845
2553.200195	115.915977
2551.412109	114.532806
2549.623047	99.680145
2547.833008	115.808708
2546.042969	102.310928
2544.251953	92.858788
2542.460938	102.247528
2540.668945	102.215790
2538.875977	92.772339
2537.083008	95.431694
2535.290039	80.621376
2533.496094	99.402023
2531.701172	98.028130
2529.905273	92.627762
2528.109375	92.598770
2526.313477	67.079536
2524.516602	93.881889
2522.718750	89.830162
2520.920898	87.121262
2519.122070	87.093834
2517.323242	92.424324
2515.523438	88.377983
2513.722656	78.979607
2511.921875	77.616417
2510.121094	73.578476
2508.318359	100.302483
2506.515625	82.890411
2504.712891	88.210152
2502.909180	70.812897
2501.104492	73.461685
2499.299805	74.773514
2497.494141	68.075577
2495.688477	76.060165
2493.881836	78.703773
2492.074219	77.345039
2490.266602	58.656742
2488.458008	57.305244
2486.649414	69.277107
2484.839844	78.577599
2483.029297	67.901146
2481.218750	79.857956
2479.407227	70.518440
2477.595703	66.505348
2475.783203	74.461914
2473.969727	78.425552
2472.156250	67.769615
2470.341797	75.717949
2468.527344	82.333138
2466.711914	106.201775
2464.895508	65.027428
2463.079102	79.599487
2461.261719	70.289955
2459.444336	74.244392
2457.625977	75.545494
2455.806641	72.870934
2453.987305	72.847076
2452.166992	83.415672
2450.346680	74.122940
2448.525391	76.744972
2446.703125	71.428726
2444.880859	67.438263
2443.057617	83.278648
2441.233398	70.036713
2439.409180	85.865730
2437.583984	58.105289
2435.758789	63.366623
2433.932617	76.542648
2432.105469	67.282440
2430.278320	68.578941
2428.450195	60.645844
2426.622070	57.989784
2424.792969	57.970486
2422.962891	52.682892
2421.132812	68.464920
2419.301758	67.125877
2417.469727	61.840443
2415.637695	67.081017
2413.804688	77.577560
2411.970703	61.778366
2410.136719	77.525558
2408.302734	86.694397
2406.466797	76.160385
2404.630859	78.760109
2402.794922	93.168083
2400.957031	111.501671
2399.119141	91.793938
2397.281250	116.670029
2395.442383	133.666534
2393.602539	129.691284
2391.761719	157.148331
2389.920898	144.003815
2388.079102	136.102890
2386.237305	121.666069
2384.394531	124.240303
2382.550781	105.895180
2380.707031	116.314346
2378.862305	84.919731
2377.017578	75.748688
2375.170898	92.695183
2373.324219	75.696953
2371.477539	73.061714
2369.629883	69.124023
2367.781250	73.011681
2365.931641	67.773308
2364.082031	67.750046
2362.231445	75.541397
2360.380859	72.911438
2358.529297	74.187889
2356.676758	57.248116
2354.824219	67.633537
2352.970703	70.210594
2351.116211	48.090641
2349.261719	53.271206
2347.406250	74.034348
2345.549805	66.218323
2343.693359	62.301525
2341.835938	59.684917
2339.977539	81.714005
2338.119141	82.982208
2336.259766	77.768768
2334.399414	76.445999
2332.539062	81.600342
2330.677734	78.982307
2328.815430	93.192490
2326.953125	84.102722
2325.089844	80.193016
2323.225586	64.649162
2321.361328	51.701221
2319.496094	60.727650
2317.629883	80.080719
2315.763672	49.064503
2313.896484	43.884396
2312.028320	63.222923
2310.160156	55.461819
2308.291016	50.284866
2306.420898	67.022858
2304.550781	55.403198
2302.679688	54.095650
2300.807617	64.376831
2298.935547	74.650719
2297.062500	69.477798
2295.188477	83.601074
2293.313477	83.571442
2291.438477	78.400764
2289.563477	93.790558
2287.686523	86.051170
2285.809570	77.033348
2283.931641	75.722511
2282.053711	75.695541
2280.173828	84.646194
2278.293945	79.487762
2276.414062	66.643364
2274.533203	61.494980
2272.651367	66.595749
2270.768555	61.451008
2268.885742	53.750381
2267.001953	53.731125
2265.117188	58.827274
2263.231445	74.146912
2261.345703	57.507118
2259.458984	63.873837
2257.572266	61.296833
2255.684570	66.381004
2253.795898	59.976608
2251.906250	84.192116
2250.016602	82.886574
2248.125977	62.461174
2246.234375	80.278221
2244.342773	89.165779
2242.450195	71.306824
2240.556641	54.733635
2238.663086	71.255196
2236.767578	58.509834
2234.872070	59.760101
2232.976562	58.467381
2231.080078	52.093300
2229.182617	48.264046
2227.284180	57.133999
2225.384766	43.152199
2223.485352	57.092396
2221.584961	46.925526
2219.684570	40.569435
2217.783203	60.831940
2215.880859	46.874161
2213.977539	67.119522
2212.073242	54.435547
2210.168945	50.619183
2208.263672	64.515823
2206.358398	77.137703
2204.452148	64.468521
2202.544922	79.608360
2200.636719	51.789593
2198.728516	66.922920
2196.818359	68.160545
2194.909180	63.088390
2192.998047	76.939499
2191.086914	55.476894
2189.174805	60.497940
2187.261719	59.215710
2185.347656	54.156078
2183.433594	56.654030
2181.518555	62.925655
2179.603516	69.192619
2177.686523	60.363941
2175.769531	59.084469
2173.851562	84.195587
2171.933594	74.114891
2170.014648	85.388863
2168.094727	86.612419
2166.173828	116.695114
2164.251953	102.854218
2162.330078	100.308258
2160.407227	110.298027
2158.484375	100.233589
2156.559570	112.720779
2154.634766	80.127113
2152.708984	88.857857
2150.782227	77.565224
2148.855469	80.037422
2146.927734	71.256691
2144.999023	48.736347
2143.070312	62.459122
2141.139648	56.192165
2139.208984	62.412354
2137.278320	47.415611
2135.345703	54.881695
2133.413086	72.316910
2131.479492	68.550636
2129.544922	80.983955
2127.609375	63.517372
2125.673828	63.493488
2123.737305	74.670113
2121.799805	63.445702
2119.862305	64.665367
2117.923828	49.723843
2115.984375	48.462463
2114.043945	54.654968
2112.103516	64.567856
2110.161133	73.232010
2108.218750	70.722832
2106.276367	70.696083
2104.332031	65.710091
2102.387695	55.770466
2100.442383	53.271595
2098.496094	65.635460
2096.549805	51.993286
2094.601562	59.398357
2092.653320	59.375813
2090.704102	61.826321
2088.754883	55.622551
2086.804688	54.365822
2084.853516	59.285614
2082.901367	64.201645
2080.948242	75.284798
2078.995117	80.190948
2077.041016	75.227448
2075.085938	72.733231
2073.129883	70.240898
2071.173828	72.677742
2069.216797	72.649994
2067.258789	62.775162
2065.299805	62.751171
2063.340820	55.347507
2061.379883	70.080025
2059.418945	70.053207
2057.458008	58.969585
2055.495117	67.543427
2053.532227	61.379585
2051.568359	56.447567
2049.603516	62.559162
2047.637695	58.856613
2045.671875	60.059723
2043.705078	77.189980
2041.737305	64.912651
2039.768555	64.887688
2037.798828	68.534203
2035.829102	73.401245
2033.858398	62.367039
2031.886719	52.563721
2029.915039	58.653172
2027.941406	64.737907
2025.967773	72.038940
2023.993164	65.908501
2022.017578	56.122608
2020.041992	74.394722
2018.065430	54.860149
2016.087891	63.369450
2014.109375	80.399353
2012.129883	60.885044
2010.150391	58.427021
2008.168945	71.788750
2006.187500	76.626091
2004.206055	65.654060
2002.222656	64.413269
2000.239258	61.958546
1998.254883	64.363319
1996.269531	81.333374
1994.283203	69.167206
1992.295898	82.483215
1990.308594	75.176064
1988.320312	75.146851
1986.331055	81.175507
1984.340820	77.510620
1982.350586	62.952873
1980.359375	82.290947
1978.367188	75.000763
1976.374023	65.297798
1974.379883	73.733589
1972.385742	62.830360
1970.389648	68.844887
1968.393555	71.232697
1966.397461	60.343132
1964.399414	65.145142
1962.401367	53.060497
1960.401367	67.505165
1958.401367	54.224022
1956.400391	51.793812
1954.399414	69.834099
1952.396484	60.178261
1950.393555	75.794937
1948.389648	60.131165
1946.384766	55.299011
1944.379883	67.294167
1942.373047	67.267799
1940.366211	74.445869
1938.358398	82.818565
1936.349609	70.788101
1934.339844	70.760330
1932.330078	74.329132
1930.318359	64.712860
1928.306641	93.437424
1926.293945	88.610939
1924.281250	80.197296
1922.266602	69.397240
1920.251953	78.938225
1918.236328	71.733803
1916.219727	62.144836
1914.202148	74.066605
1912.183594	71.649147
1910.165039	78.783035
1908.145508	69.206306
1906.124023	63.215332
1904.103516	73.920868
1902.081055	83.426147
1900.057617	85.775917
1898.034180	76.215187
1896.009766	84.517868
1893.984375	90.434135
1891.958008	77.314453
1889.931641	77.283928
1887.903320	76.064896
1885.875000	83.163116
1883.845703	89.068138
1881.815430	78.348984
1879.784180	81.877922
1877.752930	88.962547
1875.720703	81.813179
1873.686523	88.892189
1871.652344	99.519852
1869.618164	99.480469
1867.582031	89.970505
1865.545898	99.401711
1863.507812	92.265030
1861.469727	98.140564
1859.430664	92.191940
1857.390625	106.333153
1855.350586	108.653023
1853.308594	92.082344
1851.266602	107.386803
1849.223633	90.829712
1847.179688	90.793678
1845.134766	108.437714
1843.089844	101.325455
1841.042969	107.173904
1838.996094	98.890480
1836.948242	102.381607
1834.899414	103.517273
1832.849609	107.003746
1830.799805	112.838219
1828.748047	92.819542
1826.696289	91.608185
1824.643555	95.093758
1822.589844	110.311836
1820.535156	110.267967
1818.480469	87.944763
1816.423828	109.008118
1814.367188	103.106422
1812.309570	103.065392
1810.250977	110.048759
1808.191406	106.494148
1806.131836	104.112152
1804.070312	98.224022
1802.008789	115.717918
1799.946289	92.303780
1797.882812	102.778435
1795.818359	94.565186
1793.752930	88.692467
1791.687500	109.654854
1789.620117	93.286079
1787.552734	100.242554
1785.484375	101.367737
1783.415039	92.009857
1781.344727	96.630028
1779.274414	100.082748
1777.202148	110.512421
1775.129883	87.211838
1773.056641	91.826485
1770.982422	103.408806
1768.907227	103.367531
1766.832031	92.877548
1764.754883	107.927055
1762.677734	111.364098
1760.598633	88.128044
1758.519531	112.434296
1756.439453	95.009598
1754.359375	98.446220
1752.277344	97.249176
1750.195312	106.468452
1748.111328	98.328300
1746.027344	90.194626
1743.942383	89.002708
1741.856445	113.230919
1739.769531	102.791069
1737.682617	108.522461
1735.593750	87.706497
1733.504883	100.360733
1731.415039	113.004837
1729.324219	100.280518
1727.232422	104.849190
1725.139648	90.986534
1723.046875	96.706497
1720.952148	107.025101
1718.857422	96.629181
1716.761719	103.489868
1714.665039	106.896774
1712.567383	104.556091
1710.468750	112.553841
1708.370117	105.620537
1706.269531	102.135529
1704.168945	113.565994
1702.067383	124.987297
1699.964844	122.644882
1697.861328	146.656693
1695.756836	174.085175
1693.651367	167.146515
1691.545898	175.090332
1689.438477	187.603455
1687.331055	190.958817
1685.222656	190.882446
1683.113281	167.955063
1681.002930	196.440247
1678.892578	198.644958
1676.780273	209.977310
1674.667969	224.722748
1672.554688	222.352341
1670.439453	256.457764
1668.324219	234.707443
1666.208984	220.946762
1664.091797	235.658188
1661.973633	242.391891
1659.855469	224.094391
1657.735352	202.400269
1655.615234	202.319321
1653.494141	179.515015
1651.372070	164.678925
1649.249023	165.748337
1647.125977	149.794754
1645.000977	137.256958
1642.875977	141.737701
1640.750000	130.346558
1638.622070	125.762474
1636.494141	134.772537
1634.365234	130.190323
1632.236328	127.875015
1630.105469	136.873398
1627.974609	136.818710
1625.841797	126.591507
1623.708984	135.579559
1621.575195	127.619759
1619.440430	137.729126
1617.304688	136.545639
1615.167969	121.826767
1613.031250	157.860519
1610.892578	127.365112
1608.753906	141.961029
1606.613281	143.030579
1604.472656	146.350800
1602.331055	142.916412
1600.188477	142.859375
1598.045898	157.419922
1595.901367	157.357101
1593.756836	188.753189
1591.610352	185.308640
1589.463867	185.234726
1587.316406	190.771790
1585.167969	218.739197
1583.018555	207.439056
1580.868164	215.202271
1578.716797	239.765259
1576.565430	258.708862
1574.413086	248.530228
1572.258789	259.621796
1570.104492	271.823120
1567.949219	284.014679
1565.792969	274.959778
1563.635742	331.831451
1561.478516	329.465668
1559.319336	372.873657
1557.160156	463.116699
1554.999023	542.132874
1552.837891	706.945435
1550.675781	964.139709
1548.512695	1277.951904
1546.348633	1610.447754
1544.184570	1812.424927
1542.018555	1758.288086
1539.851562	1457.241699
1537.684570	1091.941040
1535.516602	841.416443
1533.347656	663.310547
1531.177734	561.979675
1529.006836	509.577545
1526.834961	477.192505
1524.662109	447.051758
1522.489258	442.438873
1520.314453	430.070648
1518.139648	425.468109
1515.963867	444.127747
1513.787109	530.306335
1511.609375	637.443359
1509.430664	824.144348
1507.250977	1122.382690
1505.071289	1515.445435
1502.889648	1751.298218
1500.708008	1940.575928
1498.524414	2119.767090
1496.340820	2208.320801
1494.156250	2358.581543
1491.970703	2534.086426
1489.785156	2862.672119
1487.597656	3329.832764
1485.409180	4032.329590
1483.220703	4760.694824
1481.030273	4905.188965
1478.839844	4709.629883
1476.648438	4310.782715
1474.456055	4166.178223
1472.262695	4579.889160
1470.068359	5455.695312
1467.874023	6670.078613
1465.677734	7823.140137
1463.481445	9285.769531
1461.283203	11075.146484
1459.084961	13371.762695
1456.885742	16359.111328
1454.685547	19934.509766
1452.484375	23308.910156
1450.282227	24450.060547
1448.080078	21617.744141
1445.875977	16172.757812
1443.671875	10913.524414
1441.466797	7200.336426
1439.259766	5061.960449
1437.052734	3709.263672
1434.844727	2775.671387
1432.635742	2147.218994
1430.426758	1687.218018
1428.215820	1414.003784
1426.003906	1273.957275
1423.791992	1134.020508
1421.579102	1098.730591
1419.365234	1084.149780
1417.150391	1093.518188
1414.934570	1207.293945
1412.717773	1287.276489
1410.500000	1487.831665
1408.281250	1619.788208
1406.062500	1658.249756
1403.841797	1633.720581
1401.621094	1441.019287
1399.399414	1251.722412
1397.176758	1001.854797
1394.953125	848.643311
1392.728516	734.554199
1390.502930	627.051880
1388.277344	571.596680
1386.049805	545.402649
1383.822266	504.084778
1381.593750	506.051361
1379.363281	515.582581
1377.132812	521.864990
1374.901367	496.821228
1372.669922	486.911682
1370.436523	457.584106
1368.202148	480.061157
1365.967773	464.777832
1363.731445	467.831543
1361.495117	438.556824
1359.257812	476.086121
1357.019531	453.291138
1354.780273	491.862000
1352.540039	491.671783
1350.299805	480.727203
1348.057617	511.717529
1345.815430	626.504456
1343.571289	702.531311
1341.327148	852.591187
1339.082031	1307.374756
1336.835938	2273.612061
1334.588867	4684.903809
1332.340820	9784.333984
1330.091797	16745.712891
1327.842773	22304.744141
1325.591797	24697.128906
1323.340820	24047.484375
1321.088867	19887.412109
1318.835938	14244.767578
1316.582031	8867.352539
1314.327148	5068.474121
1312.071289	2952.093262
1309.814453	1872.253784
1307.557617	1451.962402
1305.298828	1197.410522
1303.040039	1017.729736
1300.780273	937.361084
1298.519531	972.180481
1296.257812	990.989685
1293.995117	1079.020874
1291.731445	1267.073120
1289.467773	1497.556519
1287.202148	1860.858887
1284.936523	2190.914551
1282.669922	2435.667480
1280.401367	2539.952393
1278.132812	2890.620605
1275.864258	3923.846191
1273.593750	6344.769531
1271.322266	12181.750000
1269.049805	23557.654297
1266.777344	37979.730469
1264.503906	43903.027344
1262.229492	35843.585938
1259.953125	22049.816406
1257.676758	11464.872070
1255.400391	6262.075684
1253.122070	4197.825195
1250.842773	3356.569824
1248.563477	2874.313477
1246.282227	2393.478027
1244.000977	2178.142334
1241.718750	1920.732056
1239.435547	1516.796997
1237.151367	1084.677124
1234.866211	782.614868
1232.581055	638.930664
1230.293945	563.860779
1228.006836	537.310608
1225.718750	513.939880
1223.428711	500.061523
1221.138672	459.884460
1218.847656	490.219727
1216.556641	507.913391
1214.263672	529.798645
1211.969727	531.702576
1209.675781	580.873230
1207.380859	647.857605
1205.084961	728.437195
1202.787109	863.516846
1200.490234	1096.038330
1198.191406	1564.288574
1195.891602	2557.270020
1193.591797	4408.606445
1191.290039	7024.134766
1188.988281	9203.263672
1186.685547	8983.229492
1184.381836	7142.916992
1182.077148	5337.429688
1179.771484	4129.125977
1177.464844	3287.452148
1175.158203	2466.246582
1172.849609	1833.601318
1170.541016	1418.534424
1168.231445	1259.412109
1165.920898	1171.333618
1163.609375	1247.017212
1161.296875	1465.436890
1158.984375	1926.457275
1156.669922	2999.547363
1154.355469	5349.315918
1152.040039	9897.504883
1149.723633	15384.940430
1147.406250	17812.886719
1145.087891	14451.574219
1142.768555	9435.147461
1140.449219	5613.938965
1138.127930	3383.336914
1135.806641	2287.956299
1133.484375	1660.344482
1131.161133	1249.992676
1128.836914	980.965942
1126.511719	812.683350
1124.185547	723.274780
1121.859375	640.146179
1119.532227	591.247986
1117.203125	570.332642
1114.874023	579.439148
1112.544922	587.504822
1110.213867	583.157227
1107.881836	741.087158
1105.549805	1156.176025
1103.215820	2010.961304
1100.881836	3029.297119
1098.546875	3717.659668
1096.210938	3925.770264
1093.874023	4047.097656
1091.537109	3479.629883
1089.198242	2338.506104
1086.859375	1432.068115
1084.519531	985.611694
1082.178711	779.354309
1079.836914	796.572571
1077.494141	971.184753
1075.150391	1400.724121
1072.806641	2326.514648
1070.461914	3750.084229
1068.115234	4597.336426
1065.768555	4237.294922
1063.420898	3143.482178
1061.073242	2282.375732
1058.723633	1640.391479
1056.374023	1079.876831
1054.022461	711.463013
1051.670898	550.318726
1049.318359	435.387756
1046.965820	385.054840
1044.611328	384.919739
1042.255859	328.499817
1039.900391	334.522858
1037.543945	323.156738
1035.186523	312.820923
1032.828125	305.558197
1030.468750	306.473267
1028.109375	330.875854
1025.748047	294.009552
1023.386719	304.112488
1021.024414	322.369751
1018.661133	289.624268
1016.296875	294.621185
1013.932617	297.576538
1011.566406	296.454956
1009.200195	305.518158
1006.833008	299.304535
1004.464844	318.537598
1002.095703	289.942444
999.726562	302.046692
997.355469	298.893066
994.984375	312.002411
992.612305	294.624481
990.239258	319.913635
987.865234	299.499298
985.491211	311.575928
983.115234	298.280457
980.739258	303.249969
978.362305	277.800110
975.984375	295.949188
973.605469	310.033295
971.226562	312.966766
968.845703	320.960785
966.464844	312.755066
964.083008	308.602234
961.700195	313.555511
959.316406	337.716980
956.932617	346.700470
954.547852	381.949707
952.161133	406.064178
949.775391	439.250580
947.387695	483.518616
944.999023	545.920959
942.610352	604.246704
940.219727	706.904419
937.829102	983.892944
935.438477	1370.542480
933.045898	1762.979980
930.652344	1973.882568
928.258789	1960.140991
925.864258	1879.985718
923.468750	1704.306030
921.072266	1346.701782
918.675781	978.274170
916.278320	872.417908
913.878906	914.331116
911.479492	1062.686646
909.080078	1401.724487
906.678711	1786.714233
904.277344	2070.104980
901.875000	2186.794189
899.471680	1940.398071
897.067383	1572.864990
894.662109	1111.370605
892.256836	821.486206
889.850586	663.986450
887.443359	553.643555
885.035156	525.441162
882.625977	471.243713
880.216797	432.084290
877.806641	400.949219
875.395508	406.817719
872.983398	382.705688
870.571289	362.604889
868.157227	351.504425
865.743164	350.393921
863.328125	358.265839
860.913086	349.173035
858.496094	370.005768
856.079102	385.840424
853.661133	453.492920
851.242188	514.128113
848.822266	610.583313
846.402344	752.782043
843.981445	783.403320
841.559570	845.849365
839.136719	951.033081
836.713867	1171.512451
834.289062	1431.621338
831.864258	1793.937012
829.439453	1732.770264
827.012695	1381.612793
824.585938	939.323792
822.157227	650.175598
819.728516	503.109741
817.299805	442.440887
814.869141	418.503113
812.438477	388.631836
810.006836	389.503326
807.574219	367.586090
805.141602	378.368744
802.707031	354.488312
800.272461	356.359711
797.837891	369.115570
795.401367	379.885223
792.964844	373.835785
790.527344	376.688354
788.088867	342.969147
785.649414	340.889221
783.209961	354.615265
780.769531	330.808655
778.328125	308.003693
775.885742	323.701508
773.443359	348.269440
771.000000	334.356934
768.555664	340.173126
766.110352	323.314514
763.665039	325.189148
761.218750	329.033051
758.771484	363.404785
756.323242	399.725403
753.875000	558.072266
751.425781	974.124634
748.975586	1641.753174
746.525391	1900.884766
744.074219	1658.485474
741.622070	1021.139465
739.168945	600.321472
736.714844	426.290649
734.260742	364.303772
731.805664	324.931366
729.350586	316.004822
726.893555	284.518311
724.436523	274.628082
721.978516	269.646332
719.520508	232.319321
717.060547	255.771957
714.600586	232.186218
712.140625	240.934586
709.678711	253.594589
707.216797	231.987732
704.753906	248.557632
702.291016	257.291901
699.826172	253.307098
697.361328	250.302414
694.895508	240.457291
692.429688	242.344147
689.962891	245.206985
687.495117	254.904892
685.027344	252.881027
682.557617	237.192978
680.087891	241.030411
677.618164	216.574585
675.146484	223.341721
672.674805	268.131134
670.202148	284.628113
667.729492	476.523682
665.255859	784.246277
662.781250	969.082825
660.305664	908.449890
657.830078	604.494995
655.353516	344.497772
652.876953	235.440323
650.398438	209.115662
647.919922	200.307953
645.441406	200.254074
642.961914	203.115875
640.480469	211.805771
638.000000	228.261765
635.517578	294.233582
633.035156	652.384216
630.552734	1293.746460
628.068359	1731.978027
625.583984	1650.037720
623.099609	1051.246460
620.613281	499.307953
618.126953	263.643127
615.639648	213.185074
613.152344	195.691666
610.664062	181.113037
608.174805	183.970917
605.685547	184.891373
603.195312	179.037109
600.704102	159.640686
598.212891	158.632477
595.720703	153.756775
593.227539	155.651108
590.734375	176.875198
588.240234	158.470901
585.745117	166.159134
583.250000	175.775177
580.753906	160.282074
578.257812	167.964340
575.759766	179.503159
573.262695	167.880402
570.763672	168.803223
568.264648	165.868286
565.764648	170.647797
563.264648	171.569565
560.763672	168.636444
558.262695	142.583267
555.759766	157.959015
553.256836	149.254120
550.753906	169.434433
548.250000	163.618591
545.745117	162.616806
543.240234	156.805618
540.734375	150.035583
538.227539	151.922714
535.720703	144.195969
533.212891	146.083801
530.705078	164.305252
528.196289	156.581406
525.686523	158.465256
523.176758	149.786469
520.666016	150.711304
518.155273	139.159439
515.643555	149.681488
513.130859	162.117294
510.618164	144.816849
508.104492	140.948120
505.590820	176.384293
503.076172	27.793327
500.560547	8.623546
498.044922	6.705675
495.528320	4.788682
493.011719	2.872559
490.494141	0.000000
