#Wave		#Intensity
2647.226562	329.910004
2645.465820	308.007263
2643.705078	314.761108
2641.943359	303.725220
2640.181641	321.418030
2638.418945	328.161713
2636.656250	334.901337
2634.892578	319.772125
2633.127930	319.679199
2631.363281	311.391663
2629.598633	311.300934
2627.833008	316.669922
2626.066406	332.952118
2624.299805	319.213135
2622.533203	312.300812
2620.765625	357.200043
2618.997070	336.650757
2617.228516	327.013855
2615.458984	336.452637
2613.689453	330.906403
2611.918945	332.170044
2610.148438	341.598480
2608.376953	326.531342
2606.604492	348.196838
2604.833008	341.294769
2603.059570	347.990021
2601.286133	334.297150
2599.511719	349.141327
2597.737305	366.692719
2595.962891	344.859711
2594.187500	363.758881
2592.411133	375.862061
2590.634766	344.549927
2588.857422	383.773041
2587.079102	379.590607
2585.300781	383.542145
2583.522461	388.846008
2581.743164	373.829620
2579.962891	399.443542
2578.182617	388.493591
2576.402344	359.958160
2574.620117	366.613037
2572.838867	388.140167
2571.055664	362.334259
2569.272461	378.442932
2567.489258	383.732269
2565.705078	372.809082
2563.919922	403.753082
2562.134766	388.780304
2560.349609	408.903992
2558.562500	402.033051
2556.775391	408.653046
2554.988281	401.786011
2553.200195	404.358063
2551.412109	381.326874
2549.623047	387.944366
2547.833008	389.171112
2546.042969	428.090454
2544.251953	413.154297
2542.460938	375.356079
2540.668945	396.758667
2538.875977	400.668945
2537.083008	399.200165
2535.290039	436.699127
2533.496094	412.384064
2531.701172	448.512268
2529.905273	434.947754
2528.109375	436.153656
2526.313477	446.749695
2524.516602	431.856689
2522.718750	416.972839
2520.920898	407.459442
2519.122070	444.848511
2517.323242	444.708344
2515.523438	433.855530
2513.722656	480.570801
2511.921875	467.036713
2510.121094	465.551056
2508.318359	437.318817
2506.515625	451.886414
2504.712891	449.069855
2502.909180	452.935303
2501.104492	447.448456
2499.299805	464.663971
2497.494141	449.832764
2495.688477	463.032959
2493.881836	422.866028
2492.074219	448.067810
2490.266602	478.585693
2488.458008	477.099457
2486.649414	494.265503
2484.839844	468.801941
2483.029297	495.278931
2481.218750	495.119354
2479.407227	494.959625
2477.595703	470.857880
2475.783203	465.386932
2473.969727	506.442993
2472.156250	502.292450
2470.341797	499.472778
2468.527344	505.950409
2466.711914	493.838257
2464.895508	497.658875
2463.079102	490.863495
2461.261719	499.987030
2459.444336	487.891724
2457.625977	490.383057
2455.806641	545.869568
2453.987305	499.333618
2452.166992	529.623291
2450.346680	534.744080
2448.525391	517.367004
2446.703125	513.228638
2444.880859	522.315979
2443.057617	516.856384
2441.233398	514.043030
2439.409180	496.700226
2437.583984	515.024170
2435.758789	532.015564
2433.932617	519.962158
2432.105469	547.494324
2430.278320	545.993896
2428.450195	543.175781
2426.622070	549.584961
2424.792969	554.672180
2422.962891	525.511841
2421.132812	546.402771
2419.301758	546.220398
2417.469727	555.248230
2415.637695	553.747253
2413.804688	556.191650
2411.970703	553.376404
2410.136719	555.818848
2408.302734	550.378052
2406.466797	554.132446
2404.630859	539.506714
2402.794922	565.569641
2400.957031	604.732605
2399.119141	554.697632
2397.281250	582.039246
2395.442383	580.532104
2393.602539	567.235596
2391.761719	552.638306
2389.920898	603.506897
2388.079102	586.289368
2386.237305	629.262146
2384.394531	572.813171
2382.550781	583.077148
2380.707031	615.551208
2378.862305	582.679993
2377.017578	587.705322
2375.170898	591.421387
2373.324219	600.355103
2371.477539	597.540466
2369.629883	582.989380
2367.781250	591.916077
2365.931641	591.713135
2364.082031	612.356140
2362.231445	619.960388
2360.380859	613.237305
2358.529297	662.484802
2356.676758	647.944580
2354.824219	606.100525
2352.970703	611.092163
2351.116211	651.173279
2349.261719	657.444641
2347.406250	624.745972
2345.549805	644.005615
2343.693359	633.398804
2341.835938	625.394104
2339.977539	656.306152
2338.119141	665.154236
2336.259766	657.146057
2334.399414	686.718323
2332.539062	638.555054
2330.677734	652.575134
2328.815430	676.939880
2326.953125	706.462891
2325.089844	698.455322
2323.225586	652.956543
2321.361328	656.605530
2319.496094	657.667480
2317.629883	663.894958
2315.763672	654.623779
2313.896484	654.393799
2312.028320	667.066345
2310.160156	726.162903
2308.291016	687.226501
2306.420898	715.340149
2304.550781	684.165100
2302.679688	685.211548
2300.807617	702.994995
2298.935547	657.698608
2297.062500	688.344910
2295.188477	685.528748
2293.313477	720.000122
2291.438477	727.456299
2289.563477	714.350037
2287.686523	707.674500
2285.809570	751.075134
2283.931641	705.887756
2282.053711	738.993774
2280.173828	747.708069
2278.293945	735.902893
2276.414062	716.416138
2274.533203	744.345459
2272.651367	756.886292
2270.768555	761.736450
2268.885742	691.076355
2267.001953	756.073669
2265.117188	740.456360
2263.231445	750.417847
2261.345703	753.982178
2259.458984	742.213989
2257.572266	759.825317
2255.684570	760.828430
2253.795898	766.934937
2251.906250	748.799622
2250.016602	743.428833
2248.125977	803.072266
2246.234375	778.571289
2244.342773	777.016113
2242.450195	760.181641
2240.556641	782.818237
2238.663086	774.900208
2236.767578	773.347351
2234.872070	783.238770
2232.976562	789.309631
2231.080078	815.704834
2229.182617	759.523621
2227.284180	812.572449
2225.384766	844.006226
2223.485352	842.430054
2221.584961	801.538696
2219.684570	830.405640
2217.783203	779.409241
2215.880859	796.860718
2213.977539	815.565552
2212.073242	841.852051
2210.168945	833.951050
2208.263672	794.430115
2206.358398	763.789673
2204.452148	833.034424
2202.544922	801.138123
2200.636719	838.738770
2198.728516	814.439270
2196.818359	848.220093
2194.909180	835.290283
2192.998047	847.595764
2191.086914	796.849976
2189.174805	859.574890
2187.261719	852.958252
2185.347656	871.535034
2183.433594	866.177185
2181.518555	891.027283
2179.603516	880.633362
2177.686523	901.686340
2175.769531	915.180725
2173.851562	860.805664
2171.933594	883.097778
2170.014648	868.957275
2168.094727	878.676697
2166.173828	858.273743
2164.251953	870.497925
2162.330078	916.566711
2160.407227	907.451904
2158.484375	880.802673
2156.559570	886.736755
2154.634766	885.154236
2152.708984	928.627197
2150.782227	897.004272
2148.855469	911.676270
2146.927734	907.585205
2144.999023	929.739563
2143.070312	926.893372
2141.139648	944.028381
2139.208984	944.923035
2137.278320	920.861084
2135.345703	898.064148
2133.413086	920.170349
2131.479492	917.332153
2129.544922	965.577942
2127.609375	920.379211
2125.673828	918.788086
2123.737305	947.065918
2121.799805	954.173584
2119.862305	960.031982
2117.923828	979.559692
2115.984375	933.213074
2114.043945	991.242432
2112.103516	939.958923
2110.161133	976.840515
2108.218750	1001.286377
2106.276367	986.024353
2104.332031	991.850403
2102.387695	960.491333
2100.442383	936.588989
2098.496094	984.531860
2096.549805	1027.486328
2094.601562	998.634888
2092.653320	969.804993
2090.704102	975.619324
2088.754883	1002.441956
2086.804688	990.940674
2084.853516	970.801941
2082.901367	1006.237305
2080.948242	1028.069458
2078.995117	1047.417236
2077.041016	1006.321228
2075.085938	1018.265259
2073.129883	1041.290527
2071.173828	1013.792969
2069.216797	1017.099915
2067.258789	995.786377
2065.299805	1050.774536
2063.340820	1024.543823
2061.379883	992.185608
2059.418945	1006.553955
2057.458008	1051.624268
2055.495117	984.906006
2053.532227	1043.452881
2051.568359	1014.829041
2049.603516	1050.012573
2047.637695	1032.443115
2045.671875	1056.560913
2043.705078	1080.659790
2041.737305	1080.244385
2039.768555	1051.670288
2037.798828	1054.937256
2035.829102	1067.988159
2033.858398	1071.245605
2031.886719	1067.165771
2029.915039	1078.973999
2027.941406	1067.564819
2025.967773	1067.153076
2023.993164	1091.151855
2022.017578	1046.808716
2020.041992	1086.650757
2018.065430	1060.629517
2016.087891	1126.026367
2014.109375	1113.409302
2012.129883	1109.325439
2010.150391	1111.330688
2008.168945	1113.333984
2006.187500	1094.658447
2004.206055	1095.450195
2002.222656	1115.686401
2000.239258	1098.245605
1998.254883	1131.822876
1996.269531	1091.323975
1994.283203	1144.292480
1992.295898	1132.931152
1990.308594	1147.041260
1988.320312	1132.050903
1986.331055	1190.977905
1984.340820	1114.215210
1982.350586	1177.945068
1980.359375	1194.428833
1978.367188	1154.044067
1976.374023	1203.172485
1974.379883	1161.606201
1972.385742	1194.985107
1970.389648	1182.441040
1968.393555	1151.796509
1966.397461	1208.069580
1964.399414	1207.597900
1962.401367	1226.421021
1960.401367	1190.984009
1958.401367	1174.853760
1956.400391	1168.372070
1954.399414	1205.240234
1952.396484	1185.511719
1950.393555	1231.968506
1948.389648	1263.957153
1946.384766	1192.535156
1944.379883	1267.774048
1942.373047	1201.210693
1940.366211	1221.152466
1938.358398	1242.278442
1936.349609	1212.996094
1934.339844	1214.918823
1932.330078	1222.834106
1930.318359	1257.107178
1928.306641	1230.259399
1926.293945	1247.737793
1924.281250	1309.490234
1922.266602	1280.259399
1920.251953	1257.031372
1918.236328	1294.795044
1916.219727	1267.993652
1914.202148	1312.890381
1912.183594	1323.120972
1910.165039	1261.722168
1908.145508	1281.509888
1906.124023	1278.619507
1904.103516	1304.345703
1902.081055	1282.379028
1900.057617	1334.292114
1898.034180	1268.268433
1896.009766	1343.953247
1893.984375	1305.345337
1891.958008	1334.566406
1889.931641	1307.881958
1887.903320	1309.742432
1885.875000	1337.738159
1883.845703	1326.521362
1881.815430	1305.816406
1879.784180	1330.219482
1877.752930	1359.347778
1875.720703	1371.852783
1873.686523	1340.494141
1871.652344	1339.963745
1869.618164	1352.460571
1867.582031	1315.226685
1865.545898	1334.822998
1863.507812	1347.306030
1861.469727	1415.352417
1859.430664	1426.611084
1857.390625	1395.327271
1855.350586	1378.239990
1853.308594	1394.221191
1851.266602	1413.729492
1849.223633	1381.319336
1847.179688	1392.562744
1845.134766	1383.759521
1843.089844	1405.596069
1841.042969	1415.637817
1838.996094	1428.025635
1836.948242	1400.392090
1834.899414	1373.956543
1832.849609	1413.390137
1830.799805	1469.247559
1828.748047	1426.366211
1826.696289	1401.135498
1824.643555	1456.930298
1822.589844	1425.839111
1820.535156	1433.483521
1818.480469	1438.776367
1816.423828	1453.441650
1814.367188	1416.541626
1812.309570	1462.825806
1810.250977	1444.682617
1808.191406	1389.104980
1806.131836	1441.192871
1804.070312	1411.385620
1802.008789	1492.644287
1799.946289	1446.481934
1797.882812	1457.585083
1795.818359	1492.028442
1793.752930	1500.769897
1791.687500	1518.836426
1789.620117	1510.068481
1787.552734	1500.141479
1785.484375	1491.387329
1783.415039	1477.981079
1781.344727	1533.274048
1779.274414	1474.474854
1777.202148	1542.520752
1775.129883	1559.347656
1773.056641	1483.171997
1770.982422	1551.132080
1768.907227	1477.342773
1766.832031	1541.767334
1764.754883	1533.028320
1762.677734	1525.456055
1760.598633	1573.549316
1758.519531	1552.057007
1756.439453	1550.278564
1754.359375	1600.619751
1752.277344	1533.989990
1750.195312	1608.599487
1748.111328	1611.427368
1746.027344	1559.904541
1743.942383	1567.372437
1741.856445	1623.361572
1739.769531	1566.120117
1737.682617	1589.738647
1735.593750	1622.570190
1733.504883	1634.611084
1731.415039	1614.354736
1729.324219	1576.824707
1727.232422	1580.803101
1725.139648	1634.302368
1723.046875	1603.716064
1720.952148	1592.717651
1718.857422	1678.356934
1716.761719	1615.591919
1714.665039	1596.555054
1712.567383	1679.791260
1710.468750	1643.515747
1708.370117	1656.635132
1706.269531	1653.677490
1704.168945	1597.953857
1702.067383	1573.234619
1699.964844	1659.717651
1697.861328	1672.802979
1695.756836	1648.082642
1693.651367	1649.713135
1691.545898	1699.406128
1689.438477	1714.741333
1687.331055	1671.747192
1685.222656	1741.945190
1683.113281	1706.971924
1681.002930	1682.305176
1678.892578	1761.546875
1676.780273	1715.195068
1674.667969	1766.982422
1672.554688	1748.031494
1670.439453	1719.976807
1668.324219	1709.034790
1666.208984	1772.129639
1664.091797	1752.067383
1661.973633	1737.710815
1659.855469	1748.391357
1657.735352	1839.795654
1655.615234	1794.731567
1653.494141	1776.971313
1651.372070	1809.196655
1649.249023	1795.985352
1647.125977	1777.110474
1645.000977	1729.891479
1642.875977	1750.744019
1640.750000	1751.177612
1638.622070	1770.871582
1636.494141	1750.910522
1634.365234	1795.494385
1632.236328	1798.171631
1630.105469	1801.977905
1627.974609	1867.971069
1625.841797	1763.238770
1623.708984	1777.222168
1621.575195	1770.865234
1619.440430	1793.865356
1617.304688	1838.287842
1615.167969	1798.072754
1613.031250	1792.844482
1610.892578	1841.722046
1608.753906	1865.773438
1606.613281	1845.882812
1604.472656	1850.774780
1602.331055	1815.150879
1600.188477	1820.050903
1598.045898	1860.928345
1595.901367	1846.698120
1593.756836	1859.443604
1591.610352	1840.732544
1589.463867	1850.102051
1587.316406	1845.997559
1585.167969	1884.522339
1583.018555	1857.981201
1580.868164	1896.469971
1578.716797	1837.453369
1576.565430	1892.718628
1574.413086	1912.115479
1572.258789	1886.734253
1570.104492	1875.915039
1567.949219	1904.240234
1565.792969	1904.599487
1563.635742	1907.192871
1561.478516	1961.158325
1559.319336	1939.166260
1557.160156	1943.974243
1554.999023	1980.012085
1552.837891	1949.117798
1550.675781	1909.330933
1548.512695	1894.087280
1546.348633	1923.404663
1544.184570	1964.944702
1542.018555	1939.681152
1539.851562	1951.146606
1537.684570	2007.081055
1535.516602	2000.726074
1533.347656	1983.265259
1531.177734	2041.341064
1529.006836	1999.453491
1526.834961	2068.573975
1524.662109	2092.157959
1522.489258	2004.835815
1520.314453	2031.751221
1518.139648	2068.616943
1515.963867	2142.002686
1513.787109	2086.905029
1511.609375	2232.158447
1509.430664	2227.955322
1507.250977	2324.382568
1505.071289	2446.156738
1502.889648	2585.512939
1500.708008	2708.191162
1498.524414	2831.876465
1496.340820	3079.067871
1494.156250	3112.048096
1491.970703	3072.221436
1489.785156	3033.528564
1487.597656	2773.391357
1485.409180	2655.543945
1483.220703	2490.446777
1481.030273	2373.904541
1478.839844	2266.255127
1476.648438	2253.263916
1474.456055	2243.580566
1472.262695	2205.335449
1470.068359	2197.875244
1467.874023	2190.420898
1465.677734	2238.945801
1463.481445	2213.927490
1461.283203	2192.218750
1459.084961	2197.932861
1456.885742	2211.312744
1454.685547	2229.063477
1452.484375	2212.857178
1450.282227	2265.617432
1448.080078	2250.503662
1445.875977	2337.110107
1443.671875	2306.675049
1441.466797	2391.005615
1439.259766	2398.805420
1437.052734	2369.473633
1434.844727	2359.811768
1432.635742	2259.598877
1430.426758	2271.800293
1428.215820	2294.894287
1426.003906	2253.672852
1423.791992	2232.092041
1421.579102	2293.286865
1419.365234	2379.469482
1417.150391	2365.481201
1414.934570	2390.659424
1412.717773	2372.328857
1410.500000	2404.005615
1408.281250	2342.229004
1406.062500	2226.202881
1403.841797	2307.833740
1401.621094	2181.060791
1399.399414	2249.629395
1397.176758	2216.224121
1394.953125	2203.437988
1392.728516	2177.660645
1390.502930	2160.567383
1388.277344	2207.359131
1386.049805	2165.378418
1383.822266	2189.415527
1381.593750	2199.376953
1379.363281	2235.271973
1377.132812	2184.701904
1374.901367	2188.173584
1372.669922	2218.633057
1370.436523	2212.375977
1368.202148	2214.754150
1365.967773	2223.600586
1363.731445	2244.297852
1361.495117	2175.543701
1359.257812	2205.937500
1357.019531	2239.538086
1354.780273	2259.121094
1352.540039	2345.392578
1350.299805	2308.996094
1348.057617	2354.330566
1345.815430	2387.809326
1343.571289	2410.520264
1341.327148	2387.040527
1339.082031	2458.036377
1336.835938	2424.899902
1334.588867	2420.748047
1332.340820	2410.166748
1330.091797	2533.559326
1327.842773	2546.511719
1325.591797	2601.219482
1323.340820	2593.796875
1321.088867	2615.272461
1318.835938	2559.715332
1316.582031	2497.785400
1314.327148	2384.598633
1312.071289	2394.368896
1309.814453	2408.404053
1307.557617	2409.616943
1305.298828	2427.904785
1303.040039	2417.374756
1300.780273	2448.442627
1298.519531	2615.933105
1296.257812	2692.721436
1293.995117	2878.099121
1291.731445	3196.431641
1289.467773	3557.095947
1287.202148	3950.468262
1284.936523	4385.020020
1282.669922	4625.748047
1280.401367	4670.749512
1278.132812	4528.745117
1275.864258	4124.551758
1273.593750	3525.343994
1271.322266	3084.699219
1269.049805	2916.995361
1266.777344	2682.618652
1264.503906	2645.565186
1262.229492	2618.075684
1259.953125	2529.178223
1257.676758	2507.047607
1255.400391	2538.907959
1253.122070	2574.976562
1250.842773	2531.703857
1248.563477	2511.720947
1246.282227	2538.249023
1244.000977	2464.406494
1241.718750	2521.554688
1239.435547	2424.552979
1237.151367	2477.453369
1234.866211	2383.705566
1232.581055	2454.505859
1230.293945	2437.775635
1228.006836	2474.789551
1225.718750	2427.523438
1223.428711	2429.772705
1221.138672	2398.344727
1218.847656	2431.111084
1216.556641	2494.349121
1214.263672	2491.315186
1211.969727	2442.048828
1209.675781	2449.541504
1207.380859	2459.128662
1205.084961	2494.949707
1202.787109	2513.956787
1200.490234	2461.628662
1198.191406	2518.378906
1195.891602	2595.000244
1193.591797	2607.657227
1191.290039	2595.170166
1188.988281	2679.007324
1186.685547	2834.991699
1184.381836	2988.768799
1182.077148	3275.240967
1179.771484	3492.508789
1177.464844	3592.581055
1175.158203	3654.975098
1172.849609	3537.722900
1170.541016	3540.595215
1168.231445	3387.995850
1165.920898	3226.122070
1163.609375	3071.666260
1161.296875	2926.704834
1158.984375	2862.075684
1156.669922	2776.664307
1154.355469	2727.755615
1152.040039	2737.164795
1149.723633	2721.598877
1147.406250	2776.763672
1145.087891	2712.333984
1142.768555	2771.619873
1140.449219	2740.483154
1138.127930	2756.100830
1135.806641	2776.897949
1133.484375	2660.701904
1131.161133	2695.005127
1128.836914	2718.914062
1126.511719	2661.952637
1124.185547	2628.865479
1121.859375	2671.418945
1119.532227	2708.764893
1117.203125	2767.821045
1114.874023	2830.973877
1112.544922	2941.661377
1110.213867	3040.895996
1107.881836	3130.757324
1105.549805	3191.624512
1103.215820	3219.397217
1100.881836	3234.760742
1098.546875	3219.150635
1096.210938	3129.267090
1093.874023	3081.734863
1091.537109	2989.904053
1089.198242	3048.612061
1086.859375	3028.978516
1084.519531	2951.685547
1082.178711	2924.895264
1079.836914	2884.745361
1077.494141	2784.954590
1075.150391	2691.406006
1072.806641	2764.471191
1070.461914	2825.152588
1068.115234	2751.210449
1065.768555	2760.506104
1063.420898	2801.620850
1061.073242	2684.665039
1058.723633	2714.493896
1056.374023	2784.297852
1054.022461	2787.417725
1051.670898	2751.593506
1049.318359	2737.308350
1046.965820	2779.358643
1044.611328	2741.529541
1042.255859	2757.965820
1039.900391	2748.816162
1037.543945	2805.123047
1035.186523	2787.786377
1032.828125	2810.317871
1030.468750	2830.791260
1028.109375	2785.893066
1025.748047	2784.923828
1023.386719	2801.304688
1021.024414	2778.908936
1018.661133	2761.628418
1016.296875	2813.683350
1013.932617	2827.996338
1011.566406	2923.799805
1009.200195	2852.521240
1006.833008	2840.339111
1004.464844	2851.572998
1002.095703	2843.470459
999.726562	2850.629150
997.355469	2901.499512
994.984375	2858.836426
992.612305	2865.984863
990.239258	2937.112061
987.865234	3005.145508
985.491211	3116.774414
983.115234	3263.837402
980.739258	3605.530518
978.362305	3723.940918
975.984375	3761.189697
973.605469	3560.317139
971.226562	3297.798584
968.845703	3018.246338
966.464844	2937.266113
964.083008	2923.120850
961.700195	2933.261230
959.316406	2974.740723
956.932617	3069.764893
954.547852	3126.329102
952.161133	3014.167969
949.775391	2955.601074
947.387695	2869.819336
944.999023	2891.060059
942.610352	2923.384033
940.219727	2863.920898
937.829102	2871.031982
935.438477	2876.123535
933.045898	2834.871826
930.652344	2854.072998
928.258789	2952.795898
925.864258	2890.427734
923.468750	2909.594482
921.072266	2902.600098
918.675781	2920.746582
916.278320	2891.643066
913.878906	2927.869141
911.479492	2913.850830
909.080078	2901.850830
906.678711	2944.063477
904.277344	2886.908447
901.875000	2905.025635
899.471680	2970.263184
897.067383	2934.210205
894.662109	2926.241943
892.256836	2890.229004
889.850586	2930.353271
887.443359	2936.413330
885.035156	2890.426758
882.625977	2937.519043
880.216797	2986.582520
877.806641	2934.628174
875.395508	3055.630859
872.983398	3067.640869
870.571289	3088.634521
868.157227	3218.462402
865.743164	3181.496826
863.328125	3201.439453
860.913086	3068.732178
858.496094	3029.858643
856.079102	3105.666260
853.661133	3081.758301
851.242188	3108.681885
848.822266	3131.605225
846.402344	3100.745117
843.981445	3102.754883
841.559570	3183.378906
839.136719	3111.748535
836.713867	3126.685059
834.289062	3034.241943
831.864258	3064.104004
829.439453	2983.663330
827.012695	2896.321289
824.585938	2910.315186
822.157227	2892.536865
819.728516	2845.993652
817.299805	2871.897705
814.869141	2789.690186
812.438477	2773.958984
810.006836	2897.984131
807.574219	2776.216064
805.141602	2811.022217
802.707031	2867.592529
800.272461	2808.312500
797.837891	2805.476074
795.401367	2811.546387
792.964844	2838.382812
790.527344	2789.075684
788.088867	2869.277832
785.649414	2875.326416
783.209961	2856.677979
780.769531	2884.453857
778.328125	2838.175049
775.885742	2882.719727
773.443359	2887.775146
771.000000	2852.390137
768.555664	2866.328369
766.110352	2861.530762
763.665039	2952.323242
761.218750	2882.487061
758.771484	2844.208740
756.323242	2862.073242
753.875000	2887.802734
751.425781	2837.752930
748.975586	2764.125977
746.525391	2809.533203
744.074219	2840.168701
741.622070	2788.231689
739.168945	2734.361328
736.714844	2808.214355
734.260742	2812.307129
731.805664	2812.472412
729.350586	2788.104492
726.893555	2844.202148
724.436523	2871.824951
721.978516	2776.866943
719.520508	2766.266357
717.060547	2795.852051
714.600586	2762.722168
712.140625	2839.306396
709.678711	2781.707520
707.216797	2776.021973
704.753906	2736.091064
702.291016	2807.709961
699.826172	2827.454834
697.361328	2743.549072
694.895508	2787.740479
692.429688	2799.661133
689.962891	2763.707520
687.495117	2764.887939
685.027344	2817.817139
682.557617	2745.777100
680.087891	2851.380127
677.618164	2820.347412
675.146484	2844.924805
672.674805	2861.690430
670.202148	2911.589600
667.729492	2982.901855
665.255859	2999.620361
662.781250	2976.399170
660.305664	2993.113525
657.830078	2907.611084
655.353516	2922.392090
652.876953	2962.461914
650.398438	3018.073975
647.919922	3083.381348
645.441406	2948.401123
642.961914	2858.199951
640.480469	2821.486084
638.000000	2729.427979
635.517578	2777.254150
633.035156	2754.187500
630.552734	2706.870850
628.068359	2756.610352
625.583984	2744.242676
623.099609	2788.130615
620.613281	2768.977783
618.126953	2747.897949
615.639648	2752.994629
613.152344	2810.403564
610.664062	2745.751221
608.174805	2741.166504
605.685547	2725.937744
603.195312	2708.782959
600.704102	2702.281494
598.212891	2743.181152
595.720703	2724.105957
593.227539	2763.049072
590.734375	2753.647217
588.240234	2693.038818
585.745117	2713.610352
583.250000	2619.243408
580.753906	2687.138672
578.257812	2691.290771
575.759766	2729.220215
573.262695	2686.086426
570.763672	2718.214111
568.264648	2706.931641
565.764648	2744.826416
563.264648	2755.715576
560.763672	2769.492188
558.262695	2676.326416
555.759766	2652.555664
553.256836	2746.275879
550.753906	2755.235107
548.250000	2672.757812
545.745117	2709.638672
543.240234	2638.759766
540.734375	2684.290283
538.227539	2697.108887
535.720703	2699.348633
533.212891	2642.963379
530.705078	2655.787842
528.196289	2774.276611
525.686523	2684.305420
523.176758	2679.833496
520.666016	2684.965088
518.155273	2646.908447
515.643555	2688.509766
513.130859	2655.270264
510.618164	2659.451172
508.104492	2669.384766
505.590820	2725.329102
503.076172	245.347992
500.560547	23.954292
498.044922	1.915907
495.528320	3.830945
493.011719	-3.830079
490.494141	4.786520
